SoC E[V] Tiempo logChi logEle
0.002994 0.041997 0.007034 -0.881890 -2.488189
0.006810 0.041283 0.021102 -0.881890 -2.488189
0.010744 0.040708 0.035171 -0.881890 -2.488189
0.014351 0.040170 0.049239 -0.881890 -2.488189
0.018215 0.039428 0.063307 -0.881890 -2.488189
0.022164 0.038758 0.077376 -0.881890 -2.488189
0.026218 0.038335 0.091444 -0.881890 -2.488189
0.029949 0.037979 0.105512 -0.881890 -2.488189
0.034240 0.037239 0.119580 -0.881890 -2.488189
0.037266 0.037029 0.133649 -0.881890 -2.488189
0.041012 0.036469 0.147717 -0.881890 -2.488189
0.045166 0.035986 0.161785 -0.881890 -2.488189
0.048752 0.035810 0.175853 -0.881890 -2.488189
0.052375 0.035551 0.189922 -0.881890 -2.488189
0.056603 0.035098 0.203990 -0.881890 -2.488189
0.061021 0.034891 0.218058 -0.881890 -2.488189
0.064876 0.034653 0.232127 -0.881890 -2.488189
0.068349 0.034379 0.246195 -0.881890 -2.488189
0.073020 0.034065 0.260263 -0.881890 -2.488189
0.076859 0.033824 0.274331 -0.881890 -2.488189
0.080613 0.033656 0.288400 -0.881890 -2.488189
0.084751 0.033292 0.302468 -0.881890 -2.488189
0.088267 0.033046 0.316536 -0.881890 -2.488189
0.092027 0.032779 0.330605 -0.881890 -2.488189
0.096617 0.032546 0.344673 -0.881890 -2.488189
0.101153 0.032461 0.358741 -0.881890 -2.488189
0.105159 0.032207 0.372809 -0.881890 -2.488189
0.109066 0.032213 0.386878 -0.881890 -2.488189
0.113401 0.032067 0.400946 -0.881890 -2.488189
0.117245 0.031743 0.415014 -0.881890 -2.488189
0.121260 0.031617 0.429082 -0.881890 -2.488189
0.125893 0.031583 0.443151 -0.881890 -2.488189
0.129539 0.031306 0.457219 -0.881890 -2.488189
0.133331 0.031150 0.471287 -0.881890 -2.488189
0.137491 0.030980 0.485356 -0.881890 -2.488189
0.141979 0.030946 0.499424 -0.881890 -2.488189
0.145883 0.030719 0.513492 -0.881890 -2.488189
0.149256 0.030747 0.527560 -0.881890 -2.488189
0.152808 0.030580 0.541629 -0.881890 -2.488189
0.156086 0.030721 0.555697 -0.881890 -2.488189
0.159748 0.030435 0.569765 -0.881890 -2.488189
0.164150 0.030229 0.583834 -0.881890 -2.488189
0.168123 0.030167 0.597902 -0.881890 -2.488189
0.172574 0.030116 0.611970 -0.881890 -2.488189
0.176680 0.030035 0.626038 -0.881890 -2.488189
0.180208 0.029789 0.640107 -0.881890 -2.488189
0.184104 0.029878 0.654175 -0.881890 -2.488189
0.188808 0.029729 0.668243 -0.881890 -2.488189
0.193176 0.029615 0.682311 -0.881890 -2.488189
0.197430 0.029500 0.696380 -0.881890 -2.488189
0.201565 0.029441 0.710448 -0.881890 -2.488189
0.204633 0.029371 0.724516 -0.881890 -2.488189
0.208898 0.029384 0.738585 -0.881890 -2.488189
0.213265 0.029354 0.752653 -0.881890 -2.488189
0.217060 0.029303 0.766721 -0.881890 -2.488189
0.221553 0.029035 0.780789 -0.881890 -2.488189
0.225366 0.028883 0.794858 -0.881890 -2.488189
0.229892 0.028866 0.808926 -0.881890 -2.488189
0.233293 0.029011 0.822994 -0.881890 -2.488189
0.236670 0.028857 0.837062 -0.881890 -2.488189
0.240802 0.028779 0.851131 -0.881890 -2.488189
0.244764 0.028755 0.865199 -0.881890 -2.488189
0.248474 0.028693 0.879267 -0.881890 -2.488189
0.252225 0.028761 0.893336 -0.881890 -2.488189
0.256542 0.028582 0.907404 -0.881890 -2.488189
0.260711 0.028652 0.921472 -0.881890 -2.488189
0.264369 0.028576 0.935540 -0.881890 -2.488189
0.268020 0.028573 0.949609 -0.881890 -2.488189
0.272831 0.028520 0.963677 -0.881890 -2.488189
0.276953 0.028307 0.977745 -0.881890 -2.488189
0.281417 0.028339 0.991814 -0.881890 -2.488189
0.284760 0.028145 1.005882 -0.881890 -2.488189
0.287609 0.028242 1.019950 -0.881890 -2.488189
0.291337 0.028035 1.034018 -0.881890 -2.488189
0.296208 0.028108 1.048087 -0.881890 -2.488189
0.299837 0.028186 1.062155 -0.881890 -2.488189
0.304085 0.027934 1.076223 -0.881890 -2.488189
0.308146 0.028070 1.090292 -0.881890 -2.488189
0.311717 0.028035 1.104360 -0.881890 -2.488189
0.315061 0.028142 1.118428 -0.881890 -2.488189
0.319649 0.027939 1.132496 -0.881890 -2.488189
0.323428 0.028016 1.146565 -0.881890 -2.488189
0.327440 0.027753 1.160633 -0.881890 -2.488189
0.330579 0.027831 1.174701 -0.881890 -2.488189
0.334476 0.027852 1.188769 -0.881890 -2.488189
0.338411 0.027847 1.202838 -0.881890 -2.488189
0.342957 0.027826 1.216906 -0.881890 -2.488189
0.347184 0.027777 1.230974 -0.881890 -2.488189
0.350891 0.027580 1.245043 -0.881890 -2.488189
0.354812 0.027629 1.259111 -0.881890 -2.488189
0.358571 0.027589 1.273179 -0.881890 -2.488189
0.362683 0.027554 1.287247 -0.881890 -2.488189
0.366518 0.027545 1.301316 -0.881890 -2.488189
0.370515 0.027416 1.315384 -0.881890 -2.488189
0.374413 0.027583 1.329452 -0.881890 -2.488189
0.378248 0.027451 1.343521 -0.881890 -2.488189
0.382704 0.027338 1.357589 -0.881890 -2.488189
0.387588 0.027246 1.371657 -0.881890 -2.488189
0.391420 0.027105 1.385725 -0.881890 -2.488189
0.395374 0.027120 1.399794 -0.881890 -2.488189
0.399139 0.027364 1.413862 -0.881890 -2.488189
0.403266 0.027202 1.427930 -0.881890 -2.488189
0.407553 0.027293 1.441998 -0.881890 -2.488189
0.412064 0.027066 1.456067 -0.881890 -2.488189
0.416060 0.027203 1.470135 -0.881890 -2.488189
0.420500 0.027196 1.484203 -0.881890 -2.488189
0.425196 0.027076 1.498271 -0.881890 -2.488189
0.428589 0.027013 1.512340 -0.881890 -2.488189
0.431597 0.026989 1.526408 -0.881890 -2.488189
0.434828 0.026947 1.540476 -0.881890 -2.488189
0.438855 0.026919 1.554545 -0.881890 -2.488189
0.443776 0.026909 1.568613 -0.881890 -2.488189
0.448664 0.026803 1.582681 -0.881890 -2.488189
0.452994 0.026746 1.596749 -0.881890 -2.488189
0.457068 0.026788 1.610818 -0.881890 -2.488189
0.461256 0.026813 1.624886 -0.881890 -2.488189
0.465465 0.026804 1.638954 -0.881890 -2.488189
0.469802 0.026677 1.653023 -0.881890 -2.488189
0.473659 0.026572 1.667091 -0.881890 -2.488189
0.478048 0.026382 1.681159 -0.881890 -2.488189
0.483164 0.026677 1.695227 -0.881890 -2.488189
0.487317 0.026605 1.709296 -0.881890 -2.488189
0.491739 0.026305 1.723364 -0.881890 -2.488189
0.495668 0.026397 1.737432 -0.881890 -2.488189
0.499412 0.026554 1.751500 -0.881890 -2.488189
0.503533 0.026475 1.765569 -0.881890 -2.488189
0.507952 0.026366 1.779637 -0.881890 -2.488189
0.512868 0.026345 1.793705 -0.881890 -2.488189
0.517550 0.026429 1.807774 -0.881890 -2.488189
0.521199 0.026474 1.821842 -0.881890 -2.488189
0.524939 0.026264 1.835910 -0.881890 -2.488189
0.529247 0.026228 1.849978 -0.881890 -2.488189
0.532872 0.026124 1.864047 -0.881890 -2.488189
0.536171 0.026236 1.878115 -0.881890 -2.488189
0.540358 0.026021 1.892183 -0.881890 -2.488189
0.544651 0.025985 1.906252 -0.881890 -2.488189
0.548893 0.025754 1.920320 -0.881890 -2.488189
0.553176 0.025904 1.934388 -0.881890 -2.488189
0.556448 0.025863 1.948456 -0.881890 -2.488189
0.559906 0.025873 1.962525 -0.881890 -2.488189
0.563822 0.025507 1.976593 -0.881890 -2.488189
0.567522 0.025956 1.990661 -0.881890 -2.488189
0.570821 0.025602 2.004730 -0.881890 -2.488189
0.574088 0.025582 2.018798 -0.881890 -2.488189
0.577647 0.025236 2.032866 -0.881890 -2.488189
0.582052 0.025474 2.046934 -0.881890 -2.488189
0.586376 0.025617 2.061002 -0.881890 -2.488189
0.590031 0.025485 2.075071 -0.881890 -2.488189
0.593927 0.025201 2.089139 -0.881890 -2.488189
0.598255 0.025175 2.103207 -0.881890 -2.488189
0.601522 0.025329 2.117276 -0.881890 -2.488189
0.605180 0.025098 2.131344 -0.881890 -2.488189
0.609695 0.024827 2.145412 -0.881890 -2.488189
0.614138 0.024885 2.159481 -0.881890 -2.488189
0.618320 0.025112 2.173549 -0.881890 -2.488189
0.622792 0.024885 2.187617 -0.881890 -2.488189
0.627543 0.025051 2.201685 -0.881890 -2.488189
0.631791 0.024514 2.215754 -0.881890 -2.488189
0.636132 0.024691 2.229822 -0.881890 -2.488189
0.640142 0.024450 2.243890 -0.881890 -2.488189
0.644841 0.024489 2.257958 -0.881890 -2.488189
0.648645 0.024382 2.272027 -0.881890 -2.488189
0.652565 0.024221 2.286095 -0.881890 -2.488189
0.656819 0.024184 2.300163 -0.881890 -2.488189
0.660644 0.023988 2.314232 -0.881890 -2.488189
0.664016 0.023971 2.328300 -0.881890 -2.488189
0.668346 0.023837 2.342368 -0.881890 -2.488189
0.672331 0.023714 2.356436 -0.881890 -2.488189
0.676297 0.023767 2.370505 -0.881890 -2.488189
0.679744 0.023604 2.384573 -0.881890 -2.488189
0.683439 0.023728 2.398641 -0.881890 -2.488189
0.687248 0.023648 2.412709 -0.881890 -2.488189
0.690967 0.023292 2.426778 -0.881890 -2.488189
0.695206 0.023013 2.440846 -0.881890 -2.488189
0.699857 0.023106 2.454914 -0.881890 -2.488189
0.704018 0.022889 2.468983 -0.881890 -2.488189
0.708337 0.022650 2.483051 -0.881890 -2.488189
0.712481 0.022398 2.497119 -0.881890 -2.488189
0.716506 0.022668 2.511188 -0.881890 -2.488189
0.721155 0.022348 2.525256 -0.881890 -2.488189
0.724699 0.021894 2.539324 -0.881890 -2.488189
0.729138 0.022020 2.553392 -0.881890 -2.488189
0.733415 0.021752 2.567461 -0.881890 -2.488189
0.737669 0.021642 2.581529 -0.881890 -2.488189
0.742434 0.021370 2.595597 -0.881890 -2.488189
0.747315 0.021256 2.609665 -0.881890 -2.488189
0.752071 0.021382 2.623734 -0.881890 -2.488189
0.756167 0.020689 2.637802 -0.881890 -2.488189
0.759857 0.020716 2.651870 -0.881890 -2.488189
0.763273 0.020353 2.665939 -0.881890 -2.488189
0.767132 0.019961 2.680007 -0.881890 -2.488189
0.771098 0.019822 2.694075 -0.881890 -2.488189
0.775264 0.019691 2.708143 -0.881890 -2.488189
0.779154 0.019496 2.722212 -0.881890 -2.488189
0.782630 0.018991 2.736280 -0.881890 -2.488189
0.786932 0.018788 2.750348 -0.881890 -2.488189
0.791279 0.019047 2.764416 -0.881890 -2.488189
0.795068 0.018249 2.778485 -0.881890 -2.488189
0.798879 0.017758 2.792553 -0.881890 -2.488189
0.802860 0.017442 2.806621 -0.881890 -2.488189
0.807164 0.017222 2.820690 -0.881890 -2.488189
0.811387 0.016836 2.834758 -0.881890 -2.488189
0.815631 0.016373 2.848826 -0.881890 -2.488189
0.819986 0.015953 2.862894 -0.881890 -2.488189
0.824145 0.015476 2.876963 -0.881890 -2.488189
0.827886 0.014864 2.891031 -0.881890 -2.488189
0.831758 0.015198 2.905099 -0.881890 -2.488189
0.835958 0.014407 2.919168 -0.881890 -2.488189
0.839647 0.014231 2.933236 -0.881890 -2.488189
0.843374 0.013367 2.947304 -0.881890 -2.488189
0.846956 0.012804 2.961372 -0.881890 -2.488189
0.850725 0.012395 2.975441 -0.881890 -2.488189
0.854571 0.011780 2.989509 -0.881890 -2.488189
0.858330 0.012030 3.003577 -0.881890 -2.488189
0.862481 0.011388 3.017645 -0.881890 -2.488189
0.867228 0.009646 3.031714 -0.881890 -2.488189
0.871320 0.008125 3.045782 -0.881890 -2.488189
0.875648 0.008162 3.059850 -0.881890 -2.488189
0.879938 0.007600 3.073919 -0.881890 -2.488189
0.884182 0.006196 3.087987 -0.881890 -2.488189
0.888018 0.005633 3.102055 -0.881890 -2.488189
0.891801 0.005047 3.116123 -0.881890 -2.488189
0.896065 0.004308 3.130192 -0.881890 -2.488189
0.899443 0.003066 3.144260 -0.881890 -2.488189
0.903297 0.001393 3.158328 -0.881890 -2.488189
0.907929 -0.000340 3.172396 -0.881890 -2.488189
0.911737 -0.000954 3.186465 -0.881890 -2.488189
0.915699 -0.002266 3.200533 -0.881890 -2.488189
0.919197 -0.003748 3.214601 -0.881890 -2.488189
0.922644 -0.004357 3.228670 -0.881890 -2.488189
0.926436 -0.006213 3.242738 -0.881890 -2.488189
0.930887 -0.007835 3.256806 -0.881890 -2.488189
0.934808 -0.010195 3.270875 -0.881890 -2.488189
0.938607 -0.012091 3.284943 -0.881890 -2.488189
0.942679 -0.014432 3.299011 -0.881890 -2.488189
0.946561 -0.016835 3.313079 -0.881890 -2.488189
0.950368 -0.018450 3.327147 -0.881890 -2.488189
0.954273 -0.022442 3.341216 -0.881890 -2.488189
0.958392 -0.024882 3.355284 -0.881890 -2.488189
0.961961 -0.028998 3.369352 -0.881890 -2.488189
0.965429 -0.031201 3.383421 -0.881890 -2.488189
0.969346 -0.036250 3.397489 -0.881890 -2.488189
0.973724 -0.042649 3.411557 -0.881890 -2.488189
0.977486 -0.052294 3.425626 -0.881890 -2.488189
0.981521 -0.058353 3.439694 -0.881890 -2.488189
0.985126 -0.068912 3.453762 -0.881890 -2.488189
0.989141 -0.084362 3.467830 -0.881890 -2.488189
0.991702 -0.106316 3.481899 -0.881890 -2.488189
0.000000 -nan 3.495967 -0.881890 -2.488189
0.000000 -nan 3.510035 -0.881890 -2.488189
